time,tc temp (C),tr temp (C),tr res (ohm),PAR124,x,y,r,theta
1645307798.2106564,19.2528915,19.42582915611492,1018.38453,3.0375294,0.087769,-0.00115968,0.087769,-0.738
1645307801.9595897,18.9049816,19.200088607594946,1017.7123,3.0313279,0.087769,-0.00115968,0.087769,-0.738
1645307805.6998158,18.5222358,18.93904692508696,1016.93521,3.0237665,0.087769,-0.00109864,0.087769,-0.696
1645307809.440361,18.1158752,18.653808011806365,1016.08641,3.0160033,0.0878301,-0.00109864,0.0878301,-0.696
1645307813.192921,17.6237258,18.300436136667255,1015.03533,3.0044803,0.087769,-0.00115968,0.087769,-0.72
1645307816.9431322,17.040163,17.905916801651355,1013.86247,2.9947814,0.087769,-0.00115968,0.087769,-0.72
1645307820.6808279,16.4045009,17.461297401226343,1012.54144,2.9806449,0.087769,-0.00115968,0.087769,-0.738
1645307824.419567,15.7121858,16.973906820002085,1011.09427,2.9645569,0.087769,-0.00115968,0.087769,-0.72
1645307828.1687517,15.0102996,16.459163305144052,1009.56695,2.9473466,0.087769,-0.00115968,0.087769,-0.738
1645307831.9110315,14.278491,15.914963258080496,1007.95342,2.9273738,0.087769,-0.00115968,0.087769,-0.72
1645307835.659213,13.5448551,15.356505469489777,1006.29889,2.9061508,0.087769,-0.00115968,0.087769,-0.738
1645307839.3855362,12.8198575,14.791660794524377,1004.62675,2.8826456,0.087708,-0.00115968,0.087708,-0.738
1645307843.136146,12.1196365,14.211752715170077,1002.91139,2.8584885,0.087708,-0.00115968,0.087708,-0.738
1645307846.88727,11.4178934,13.63095407136111,1001.19479,2.8335981,0.087708,-0.00115968,0.087708,-0.72
1645307850.6426213,10.7218265,13.32348372518171,1000.2866,2.8074793,0.087708,-0.00115968,0.087708,-0.72
1645307854.4132044,10.0569591,12.762130295376469,998.629512,2.7812364,0.087647,-0.00115968,0.087647,-0.72
1645307858.1793144,9.40840148,12.183923007564625,996.924035,2.752424,0.087647,-0.00115968,0.087647,-0.72
1645307861.92988,8.77922058,11.622939530148772,995.270683,2.7250034,0.087647,-0.00115968,0.087647,-0.72
1645307865.6864905,8.16070747,11.06037685818305,993.613984,2.6983771,0.0875859,-0.00115968,0.0875859,-0.72
1645307869.417465,7.57517623,10.512831889652313,992.002768,2.6708588,0.0875859,-0.00109864,0.0875859,-0.696
1645307873.1761386,7.0333023,9.97848616576626,990.431588,2.6448631,0.0875859,-0.00109864,0.0875859,-0.696
1645307876.9062793,6.52382612,9.448554333731039,988.874553,2.6174461,0.0875249,-0.00103761,0.0875249,-0.678
1645307880.6321156,6.03312921,8.94037232731923,987.382514,2.5928907,0.0875249,-0.00109864,0.0875249,-0.696
1645307884.3522387,5.55622816,8.443236633822425,985.923941,2.5687999,0.0875249,-0.00103761,0.0875249,-0.678
1645307888.0899274,5.13027238,7.95977992372398,984.506482,2.5433669,0.0875249,-0.00097657,0.0875249,-0.63
1645307891.8293755,4.71564674,7.490988568336987,983.132944,2.5194318,0.0875249,-0.00109864,0.0875249,-0.702
1645307895.568304,4.33752393,7.032383837341069,981.790132,2.4961693,0.0874028,-0.00115968,0.0874028,-0.744
1645307899.29259,3.96761107,6.594759645534665,980.509563,2.4724996,0.0874028,-0.00115968,0.0874028,-0.744
1645307903.0151198,3.60947704,6.171734672375978,979.272467,2.4519593,0.0874028,-0.00115968,0.0874028,-0.744
1645307906.7454402,3.2757399,5.76317531664077,978.078377,2.4308793,0.0874028,-0.00115968,0.0874028,-0.72
1645307910.4827425,2.96868038,5.369366948450408,976.928053,2.4106826,0.0874028,-0.00115968,0.0874028,-0.72
1645307914.2177558,2.66315174,4.990171862403783,975.821021,2.3913743,0.0873418,-0.00109864,0.0873418,-0.702
1645307917.9543993,2.37902069,4.619495270051017,974.739433,2.3724954,0.0873418,-0.00115968,0.0873418,-0.72
1645307921.6877058,2.11531472,4.269165190269678,973.717736,2.3543555,0.0873418,-0.00115968,0.0873418,-0.72
1645307925.419214,1.856992,3.930324347608418,972.730029,2.337064,0.0873418,-0.00103761,0.0873418,-0.678
1645307929.150534,1.60364782,3.6078652007808767,971.790515,2.3208599,0.0872808,-0.00109864,0.0872808,-0.702
1645307932.869674,1.36583268,3.2968110319431077,970.884638,2.3049981,0.0872808,-0.00103761,0.0872808,-0.678
1645307936.6197479,1.14188849,2.9971642542764214,970.012361,2.2906763,0.0872808,-0.00109864,0.0872808,-0.702
1645307940.3629646,0.937166094,2.7074730670499116,969.169418,2.2752635,0.0873418,-0.00115968,0.0873418,-0.72
1645307944.1063502,0.730107426,2.434076685606044,968.374208,2.2615752,0.0872808,-0.00109864,0.0872808,-0.702
1645307947.8286202,0.530518591,2.171737150834343,967.611449,2.2482268,0.0872197,-0.00115968,0.0872197,-0.72
1645307951.559559,0.344086647,1.9194888534260628,966.878299,2.2348577,0.0872197,-0.00109864,0.0872197,-0.702
1645307955.3586397,0.174298301,1.676584991638821,966.172557,2.2228169,0.0872197,-0.00115968,0.0872197,-0.72
1645307959.0980601,-0.0137961842,1.444340029680405,965.498012,2.2118201,0.0872197,-0.00109864,0.0872197,-0.702
1645307962.8444023,-0.171515196,1.224728682286228,964.860366,2.200874,0.0871587,-0.00115968,0.0871587,-0.726
1645307966.5909507,-0.316229164,1.0120836693019777,964.243137,2.1899495,0.0872197,-0.00115968,0.0872197,-0.72
1645307970.3444557,-0.464219003,0.8115761701978871,963.66131,2.1796908,0.0871587,-0.00109864,0.0871587,-0.702
1645307974.0747702,-0.613680243,0.6162576042792757,963.0947,2.1711108,0.0871587,-0.00109864,0.0871587,-0.702
1645307977.8094256,-0.727587997,0.43325802807662334,962.56397,2.1611592,0.0871587,-0.00109864,0.0871587,-0.702
1645307981.5313,-0.863160192,0.2567369476482374,962.05216,2.1523053,0.0871587,-0.00115968,0.0871587,-0.726
1645307985.2662606,-0.97319287,0.0893224632637045,961.566873,2.1438431,0.0870366,-0.00109864,0.0870366,-0.702
1645307989.01296,-1.09280347,-0.07302485478269159,961.096385,2.1352736,0.0870976,-0.00109864,0.0870976,-0.702
1645307992.7478034,-1.20653605,-0.2259132354575845,960.653409,2.1275455,0.0871587,-0.00109864,0.0871587,-0.702
1645307996.4866786,-1.30886757,-0.37353436069434504,960.225786,2.1207909,0.0871587,-0.00109864,0.0871587,-0.702
1645308000.2378373,-1.40979349,-0.514556108998771,959.817364,2.1141629,0.0870366,-0.00109864,0.0870366,-0.702
1645308003.9629729,-1.50865972,-0.6486087283937749,959.429202,2.107217,0.0870976,-0.00109864,0.0870976,-0.702
1645308007.7096355,-1.59849071,-0.777299730953616,959.056635,2.1012651,0.0870976,-0.00115968,0.0870976,-0.726
1645308011.4558396,-1.69141137,-0.9000280812105155,958.701394,2.0947422,0.0870366,-0.00115968,0.0870366,-0.726
1645308015.1896887,-1.78138065,-1.0176262227757555,958.361061,2.0894026,0.0870366,-0.00109864,0.0870366,-0.702
1645308018.926687,-1.87165594,-1.1292022805007471,958.038209,2.084177,0.0870366,-0.00109864,0.0870366,-0.702
1645308022.649221,-1.95553994,-1.2359687657175675,957.729322,2.0790147,0.0870366,-0.00109864,0.0870366,-0.702
1645308026.3904436,-2.02404356,-1.3387345485515643,957.432054,2.0732495,0.0870366,-0.00115968,0.0870366,-0.726
1645308030.1429234,-2.09288191,-1.4364743715279582,957.149365,2.0684094,0.0870366,-0.00109864,0.0870366,-0.702
1645308033.944853,-2.15203714,-1.531101974081811,956.875715,2.0640552,0.0870366,-0.00115968,0.0870366,-0.744
1645308037.6983938,-2.20846796,-1.6212845070357138,956.614954,2.0598733,0.0870366,-0.00115968,0.0870366,-0.726
1645308041.430934,-2.27176141,-1.7068815404077577,956.367483,2.056169,0.0870366,-0.00109864,0.0870366,-0.702
1645308045.1564772,-2.32482337,-1.787731215067468,956.133765,2.0522348,0.0869756,-0.00109864,0.0869756,-0.702
1645308048.8957512,-2.39605784,-1.8661427274420284,955.907121,2.0480177,0.0869756,-0.00109864,0.0869756,-0.702
1645308052.6695542,-2.44984745,-1.9414664604575511,955.689426,2.0445711,0.0869756,-0.00103761,0.0869756,-0.678
1645308056.4088752,-2.49856925,-2.0131660603299584,955.482227,2.0411345,0.0869756,-0.00103761,0.0869756,-0.678
1645308060.1394775,-2.54532527,-2.0817484767796253,955.284056,2.0371844,0.0870366,-0.00109864,0.0870366,-0.702
1645308063.8860726,-2.59916877,-2.1460996499892873,955.098129,2.0352075,0.0870366,-0.00103761,0.0870366,-0.678
1645308067.6517098,-2.66466498,-2.209989439920558,954.913552,2.0302596,0.0869756,-0.00109864,0.0869756,-0.702
1645308071.396791,-2.71069288,-2.27094801241871,954.737459,2.0272703,0.0869756,-0.00115968,0.0869756,-0.726
1645308075.1470172,-2.74073934,-2.3279238335651815,954.572885,2.0265514,0.0869756,-0.00109864,0.0869756,-0.702
1645308078.881642,-2.76885437,-2.3830740595619098,954.413597,2.0239939,0.0869756,-0.00115968,0.0869756,-0.726
1645308082.6122658,-2.81549024,-2.4356568946277677,954.261736,2.0206751,0.0869756,-0.00115968,0.0869756,-0.726
1645308086.3456414,-2.84236645,-2.486302014339332,954.115482,2.018403,0.0869756,-0.00103761,0.0869756,-0.678
1645308090.0854394,-2.87736487,-2.5341113395324526,953.977427,2.0158863,0.0869145,-0.00109864,0.0869145,-0.702
1645308093.8167033,-2.92409157,-2.581129085035552,953.841667,2.0139954,0.0869145,-0.00103761,0.0869145,-0.684
1645308097.544326,-2.93995857,-2.6261213416556006,953.711764,2.0120058,0.0869756,-0.00103761,0.0869756,-0.678
1645308101.284564,-2.97878503,-2.6676238953475297,953.591944,2.0097637,0.0870366,-0.00115968,0.0870366,-0.726
1645308105.0135744,-3.02731442,-2.708094552366219,953.47511,2.0083975,0.0869756,-0.00115968,0.0869756,-0.726
1645308108.7503695,-3.06020498,-2.747310728920953,953.361904,2.0055751,0.0869756,-0.00103761,0.0869756,-0.678
1645308112.4779632,-3.09101676,-2.7846614349919747,953.254089,2.0044631,0.0869756,-0.00103761,0.0869756,-0.678
1645308116.2185,-3.11957335,-2.820715605334426,953.150022,2.0021903,0.0869756,-0.00109864,0.0869756,-0.702
1645308119.9892042,-3.14885711,-2.8550829051472997,953.050829,2.0004668,0.0869756,-0.00109864,0.0869756,-0.702
1645308123.7436764,-3.1553862,-2.8881168553809524,952.955489,2.0003085,0.0869145,-0.00115968,0.0869145,-0.726
1645308127.4716482,-3.18001961,-2.9198470664720846,952.863916,1.9986733,0.0869756,-0.00109864,0.0869756,-0.702
1645308131.198496,-3.19024586,-2.949804512619801,952.777463,1.9974356,0.0869145,-0.00115968,0.0869145,-0.726
1645308134.935977,-3.21393871,-2.9787416476406166,952.693958,1.9952123,0.0869145,-0.00109864,0.0869145,-0.702
1645308138.6778822,-3.24473547,-3.00604598599756,952.615168,1.9937375,0.0869145,-0.00103761,0.0869145,-0.684
1645308142.4230113,-3.26081347,-3.032990964483724,952.537418,1.9926103,0.0869756,-0.00109864,0.0869756,-0.702
1645308146.1531634,-3.28169369,-3.0585558667189967,952.463653,1.9923772,0.0869756,-0.00103761,0.0869756,-0.678
1645308149.8928902,-3.30413937,-3.083049353269077,952.392982,1.9923026,0.0869756,-0.00103761,0.0869756,-0.678
1645308153.6196342,-3.33719801,-3.1070570695839597,952.323715,1.9933658,0.0869756,-0.00109864,0.0869756,-0.702
1645308157.339656,-3.34583854,-3.130097171660955,952.257242,1.9903322,0.0869756,-0.00109864,0.0869756,-0.702
1645308161.0810113,-3.35299396,-3.1524437441307973,952.192772,1.9876573,0.0869756,-0.00109864,0.0869756,-0.702
1645308164.832473,-3.36147308,-3.173793760511315,952.131179,1.9870682,0.0869145,-0.00103761,0.0869145,-0.684
1645308168.605869,-3.38728475,-3.1945374527681096,952.071337,1.9844961,0.0868535,-0.00103761,0.0868535,-0.684
1645308172.3353288,-3.40050435,-3.214385655592692,952.01408,1.9816083,0.0869145,-0.00109864,0.0869145,-0.702
1645308176.0764675,-3.40938115,-3.233195466364941,951.95982,1.9833101,0.0869145,-0.00103761,0.0869145,-0.684
1645308179.8325665,-3.42667341,-3.2515571875243987,951.906854,1.9852755,0.0869145,-0.00103761,0.0869145,-0.684
1645308183.5667787,-3.44018626,-3.2691539150899462,951.856096,1.9814618,0.0869145,-0.00109864,0.0869145,-0.702
1645308187.31907,-3.47302603,-3.286452931637269,951.806198,1.9816861,0.0869145,-0.00109864,0.0869145,-0.702
1645308191.059863,-3.48480868,-3.3032188055264107,951.757839,1.9808045,0.0869145,-0.00109864,0.0869145,-0.702
1645308194.7911246,-3.4949758,-3.3192680896427933,951.711548,1.9795432,0.0869145,-0.00109864,0.0869145,-0.702
1645308198.517947,-3.49824953,-3.334699895233504,951.667039,1.9800119,0.0869145,-0.00103761,0.0869145,-0.684
1645308202.2750168,-3.52748441,-3.349783932024902,951.623534,1.9808754,0.0869145,-0.00103761,0.0869145,-0.684
1645308206.0188258,-3.53317856,-3.3641231709160904,951.582178,1.9783184,0.0869145,-0.00103761,0.0869145,-0.684
1645308209.7599804,-3.54530215,-3.377982126529867,951.542208,1.9762493,0.0869145,-0.00103761,0.0869145,-0.684
1645308213.4998512,-3.55897378,-3.391755365054779,951.502486,1.9821461,0.0869145,-0.00115968,0.0869145,-0.75
1645308217.242151,-3.57111048,-3.4046862710430266,951.465194,1.9759956,0.0869145,-0.00115968,0.0869145,-0.75
1645308220.9703956,-3.57893085,-3.4174426513110854,951.428406,1.9759638,0.0868535,-0.00103761,0.0868535,-0.684
1645308224.718835,-3.5949521,-3.4299263622802387,951.392405,1.977674,0.0869756,-0.00103761,0.0869756,-0.66
1645308228.4589508,-3.60871362,-3.4417753622523817,951.358235,1.9769138,0.0869145,-0.00109864,0.0869145,-0.702
1645308232.1895032,-3.61995029,-3.4531016270987815,951.325573,1.9755014,0.0869145,-0.00103761,0.0869145,-0.66
1645308235.913148,-3.61485505,-3.464455818393946,951.292831,1.9720858,0.0868535,-0.00103761,0.0868535,-0.66
1645308239.656211,-3.62365484,-3.4750545482350024,951.262268,1.9766886,0.0869145,-0.00103761,0.0869145,-0.684
1645308243.4075785,-3.64244866,-3.485847642171787,951.231145,1.9710048,0.0868535,-0.00115968,0.0868535,-0.726
1645308247.1580448,-3.65025854,-3.4958231577666483,951.20238,1.9719283,0.0869145,-0.00115968,0.0869145,-0.726
1645308250.8875597,-3.64693927,-3.505595590778176,951.174201,1.9730374,0.0869145,-0.00103761,0.0869145,-0.684
1645308254.6203115,-3.64173674,-3.514949913211969,951.147228,1.9728136,0.0869145,-0.00109864,0.0869145,-0.702
1645308258.3793592,-3.63306427,-3.5246348713467266,951.119302,1.9750378,0.0869756,-0.00103761,0.0869756,-0.678
1645308262.1146715,-3.65673446,-3.53308218185964,951.094945,1.9719543,0.0869145,-0.00103761,0.0869145,-0.684
1645308265.8482955,-3.65595459,-3.5415791898239344,951.070445,1.9705834,0.0869145,-0.00103761,0.0869145,-0.684
1645308269.565487,-3.66266584,-3.549929942079167,951.046367,1.9703094,0.0868535,-0.00109864,0.0868535,-0.702
1645308273.306489,-3.67178988,-3.557805988274673,951.023658,1.9787969,0.0870366,-0.00115968,0.0870366,-0.744
1645308277.02743,-3.67134261,-3.565408127219977,951.001739,1.9712783,0.0869145,-0.00109864,0.0869145,-0.702
1645308280.7357414,-3.67758703,-3.572595188419994,950.981017,1.9705431,0.0868535,-0.00115968,0.0868535,-0.726
1645308284.4711003,-3.68727874,-3.579141367814637,950.962143,1.968878,0.0869145,-0.00115968,0.0869145,-0.726
1645308288.1929607,-3.70466971,-3.5858710874509803,950.94274,1.969073,0.0869145,-0.00109864,0.0869145,-0.702
1645308291.9266133,-3.69819569,-3.5921048851018775,950.924767,1.9689158,0.0869145,-0.00103761,0.0869145,-0.684
1645308295.680851,-3.71205759,-3.598385216007291,950.90666,1.9685428,0.0869145,-0.00109864,0.0869145,-0.702
1645308299.4136539,-3.70775461,-3.6046864145121487,950.888493,1.9676823,0.0868535,-0.00109864,0.0868535,-0.702
1645308303.1801057,-3.70921254,-3.6104330517731866,950.871925,1.9687839,0.0868535,-0.00115968,0.0868535,-0.726
1645308306.9317,-3.6984806,-3.615428100113937,950.857524,1.9669115,0.0867925,-0.00097657,0.0867925,-0.636
1645308310.6699157,-3.69947957,-3.621138405813346,950.841061,1.9666895,0.0868535,-0.00109864,0.0868535,-0.702
1645308314.4127347,-3.71723151,-3.6260704022072043,950.826842,1.9668354,0.0868535,-0.00109864,0.0868535,-0.702
1645308318.1334727,-3.73027968,-3.6309132896489373,950.81288,1.9666339,0.0868535,-0.00109864,0.0868535,-0.702
1645308321.8710072,-3.72419905,-3.6357693916359346,950.79888,1.9661703,0.0868535,-0.00109864,0.0868535,-0.702
1645308325.5929368,-3.72218298,-3.640314733752207,950.785776,1.966518,0.0868535,-0.00103761,0.0868535,-0.66
1645308329.3149834,-3.73339462,-3.644728641733741,950.773051,1.9673887,0.0869145,-0.00103761,0.0869145,-0.684
1645308333.0519488,-3.74665999,-3.648996544449916,950.760747,1.9666352,0.0869145,-0.00103761,0.0869145,-0.684
1645308336.777874,-3.75392866,-3.653558969681313,950.747594,1.9666961,0.0869145,-0.00115968,0.0869145,-0.726
1645308340.5153282,-3.75180411,-3.6572809428958752,950.736864,1.9639539,0.0868535,-0.00115968,0.0868535,-0.726
1645308344.2472715,-3.73881602,-3.661219388014834,950.72551,1.965445,0.0868535,-0.00109864,0.0868535,-0.702
1645308347.9812632,-3.74118614,-3.6647568619218664,950.715312,1.9664685,0.0868535,-0.00109864,0.0868535,-0.702
1645308351.7062843,-3.753443,-3.668419231252483,950.704754,1.9667837,0.0868535,-0.00103761,0.0868535,-0.684
1645308355.442232,-3.75981545,-3.6721773597391265,950.69392,1.9664921,0.0868535,-0.00109864,0.0868535,-0.702
1645308359.1783073,-3.76454758,-3.675263591355534,950.685023,1.9658932,0.0869145,-0.00103761,0.0869145,-0.684
1645308362.9169014,-3.77221679,-3.6785035075211114,950.675683,1.9662526,0.0869145,-0.00103761,0.0869145,-0.684
1645308366.6512628,-3.76577472,-3.6816671232790745,950.666563,1.9656112,0.0869145,-0.00103761,0.0869145,-0.684
1645308370.3907459,-3.75850105,-3.6843988754138293,950.658688,1.9659451,0.0869145,-0.00109864,0.0869145,-0.702
1645308374.1364827,-3.76689982,-3.6872603755773317,950.650439,1.9658571,0.0868535,-0.00115968,0.0868535,-0.726
1645308377.8862715,-3.76235294,-3.6897427338847466,950.643283,1.9647855,0.0868535,-0.00109864,0.0868535,-0.702
1645308381.6132836,-3.77422928,-3.6920478383580093,950.636638,1.9656615,0.0869145,-0.00115968,0.0869145,-0.726
1645308385.3514838,-3.77161836,-3.6948118924201503,950.62867,1.9636716,0.0868535,-0.00115968,0.0868535,-0.726
1645308389.087899,-3.77613139,-3.697171129465115,950.621869,1.9650797,0.0868535,-0.00103761,0.0868535,-0.684
1645308392.822687,-3.78102469,-3.699611548486676,950.614834,1.9717522,0.0870366,-0.00109864,0.0870366,-0.702
1645308396.5464835,-3.78250861,-3.701761968862525,950.608635,1.9659662,0.0869756,-0.00103761,0.0869756,-0.678
1645308400.282027,-3.7831304,-3.7041965066657263,950.601617,1.9648735,0.0868535,-0.00103761,0.0868535,-0.66
1645308404.028013,-3.77370977,-3.706475641385255,950.595047,1.9655985,0.0869145,-0.00115968,0.0869145,-0.726
1645308407.7695742,-3.77851366,-3.7084186356369684,950.589446,1.9656554,0.0868535,-0.00109864,0.0868535,-0.702
1645308411.5035372,-3.78124928,-3.710476460130105,950.583514,1.9652197,0.0869145,-0.00103761,0.0869145,-0.684
1645308415.2382069,-3.78885674,-3.7124562373389742,950.577807,1.9648144,0.0868535,-0.00109864,0.0868535,-0.702
1645308419.0194407,-3.787925,-3.7150829979088265,950.570235,1.9650909,0.0869145,-0.00103761,0.0869145,-0.684
1645308422.7501976,-3.79344058,-3.717678546802709,950.562753,1.9655959,0.0869145,-0.00109864,0.0869145,-0.702
1645308426.4751709,-3.79097986,-3.7182044571122024,950.561237,1.9546482,0.0867925,-0.00115968,0.0867925,-0.75
1645308430.2206516,-3.79121685,-3.720111405672484,950.55574,1.9578745,0.0866704,-0.00115968,0.0866704,-0.75
1645308433.9537776,-3.79518294,-3.72188896256792,950.550616,1.9639275,0.0867925,-0.00109864,0.0867925,-0.702
1645308437.676395,-3.77837753,-3.723851426725188,950.544959,1.9652962,0.0868535,-0.00103761,0.0868535,-0.684
1645308441.4120247,-3.80064821,-3.72570774181739,950.539608,1.965053,0.0868535,-0.00109864,0.0868535,-0.702
1645308445.1424882,-3.80456781,-3.7275463693771758,950.534308,1.9649546,0.0868535,-0.00109864,0.0868535,-0.702
1645308448.88182,-3.79823875,-3.729625758919549,950.528314,1.9644489,0.0868535,-0.00109864,0.0868535,-0.702
1645308452.673944,-3.78724241,-3.7314075030429477,950.523178,1.9644722,0.0868535,-0.00103761,0.0868535,-0.684
1645308456.4108956,-3.7965815,-3.7333453630966433,950.517592,1.9650399,0.0869145,-0.00103761,0.0869145,-0.684
1645308460.148095,-3.79781126,-3.735150360042129,950.512389,1.9651578,0.0868535,-0.00109864,0.0868535,-0.702
1645308463.8823647,-3.80734562,-3.737001501492471,950.507053,1.96464,0.0868535,-0.00109864,0.0868535,-0.702
1645308467.6364563,-3.81044316,-3.7386868215796287,950.502195,1.9638549,0.0868535,-0.00109864,0.0868535,-0.702
1645308471.3684182,-3.80371022,-3.7403190673360864,950.49749,1.9645644,0.0868535,-0.00103761,0.0868535,-0.684
