time (unix), tc temp (C), tr temp (C), tr res (ohm), film res (ohm)
1644112976.8055372,26.2410411,24.586913350139206,1033.81116,-2126556.87
1644112978.0032635,26.2288131,24.585163174935172,1033.80591,-2126719.1
1644112979.2168772,26.229412,24.58581324050394,1033.80786,-2126191.78
1644112980.4464252,26.2366085,24.57307518285826,1033.76965,-2127346.79
1644112981.6434815,26.2266254,24.57173502350747,1033.76563,-2127545.65
1644112982.8434494,26.2334136,24.570188169834335,1033.76099,-2127166.74
1644112984.0405111,26.2258586,24.565547589017164,1033.74707,-2127384.15
1644112985.2394679,26.2312698,24.56619767217038,1033.74902,-2127999.92
1644112986.4341831,26.2164306,24.57246511062511,1033.76782,-2127156.69
1644112987.6368108,26.214714,24.56965810499331,1033.7594,-2127486.56
1644112988.8359945,26.2165622,24.590413687875838,1033.82166,-2127318.73
1644112990.0334754,26.225214,24.588866874045113,1033.81702,-2126370.68
1644112991.2334428,26.2370815,24.58862018360338,1033.81628,-2126677.1
1644112992.4474814,26.2381076,24.586219947896915,1033.80908,-2127308.09
1644112993.647398,26.2312145,24.58117609336487,1033.79395,-2127486.46
1644112994.8528688,26.2322311,24.579302557497996,1033.78833,-2127680.1
1644112996.0485084,26.2440052,24.57860914797832,1033.78625,-2126813.76
1644112997.2422626,26.2283782,24.57140831761862,1033.76465,-2126866.94
1644112998.4563878,26.235506,24.571448322429323,1033.76477,-2125931.34
1644112999.6554487,26.2172889,24.567987898149035,1033.75439,-2125479.48
1644113000.8565211,26.1705284,24.56912803976489,1033.75781,-2126187.96
1644113002.0574436,26.1143379,24.565507583881036,1033.74695,-2126051.55
1644113003.2533956,26.0448703,24.56050025691319,1033.73193,-2126971.36
1644113004.4484363,25.9438457,24.55598296490257,1033.71838,-2126439.31
1644113005.6553848,25.8145713,24.550125445463475,1033.70081,-2125821.83
1644113006.8520145,25.5890903,24.541537442977166,1033.67505,-2126113.22
1644113008.052579,25.2938861,24.524647852562392,1033.62439,-2125517.04
1644113009.2534487,24.9036655,24.50157322237632,1033.55518,-2125776.77
1644113010.4634483,24.4451942,24.46701824897173,1033.45154,-2126104.95
1644113011.6603117,23.934597,24.41931407594129,1033.30847,-2126315.7
1644113012.8563986,23.4081573,24.360618998687343,1033.13245,-2126807.09
1644113014.0844424,22.8673496,24.26849195711492,1032.8562,-2127277.48
1644113015.2826996,22.3362617,24.17920509598628,1032.5885,-2127089.88
1644113016.4794712,21.8086681,24.079482317364498,1032.28955,-2127424.44
1644113017.6794965,21.3019466,23.96532884191525,1031.94739,-2127342.92
1644113018.8784041,20.7790584,23.840034910098844,1031.5719,-2127791.4
1644113020.0744016,20.2633399,23.70930223388938,1031.18018,-2128626.06
1644113021.2722368,19.7654399,23.568273919767933,1030.75769,-2130368.09
1644113022.5007522,19.2544918,23.41817272074489,1030.30811,-2131124.52
1644113023.6996026,18.7509212,23.26012851651805,1029.83484,-2132394.18
1644113024.898859,18.2651329,23.091286617357525,1029.32935,-2133148.73
1644113026.0996175,17.7889766,22.925950461809936,1028.83447,-2137181.42
1644113027.2997406,17.3265914,22.747321705364325,1028.29993,-2139279.9
1644113028.4975145,16.8636074,22.562808639102634,1027.74792,-2142117.93
1644113029.699541,16.4125022,22.374128850926343,1027.18359,-2144514.22
1644113030.9004612,15.9665021,22.18147976317031,1026.60754,-2144399.14
1644113032.1013775,15.5317583,21.981060858160394,1026.00842,-2147337.02
1644113033.3011699,15.104516,21.78299590607315,1025.4165,-2151576.74
1644113034.4994328,14.6941938,21.57699317834163,1024.80103,-2154466.5
1644113035.6994486,14.2697134,21.371048868636876,1024.18591,-2157926.4
1644113036.898916,13.8668689,21.159773713816566,1023.55505,-2162930.17
1644113038.0955973,13.4928855,20.94553517971589,1022.91553,-2166187.57
1644113039.293181,13.1085195,20.733049516577292,1022.28143,-2170350.72
1644113040.490929,12.7199573,20.514714869762223,1021.63007,-2174210.87
1644113041.6913555,12.3511362,20.29385262013521,1020.97137,-2180566.45
1644113042.8934486,11.9786491,20.07798467201123,1020.32776,-2185063.73
1644113044.0910532,11.6203784,19.85858913339686,1019.67383,-2190439.92
1644113045.2884278,11.2804613,19.635048526112143,1019.00775,-2197506.53
1644113046.4904022,10.9167823,19.408161466018843,1018.33191,-2202647.09
1644113047.6882489,10.5790405,19.185569183270157,1017.66907,-2208371.43
1644113048.8904657,10.24831,18.958805814400097,1016.99402,-2213593.53
1644113050.0885668,9.92845535,18.73375554097604,1016.32428,-2221629.16
1644113051.289987,9.6059513,18.51044014237679,1015.65991,-2227144.06
1644113052.4904368,9.29359149,18.282643264037535,1014.98242,-2232801.01
1644113053.706305,8.97261524,18.057260144181367,1014.31232,-2241207.95
1644113054.9054575,8.66174983,17.82892922992819,1013.63367,-2247843.34
1644113056.1074493,8.37916851,17.602929109642126,1012.96216,-2253623.37
1644113057.314852,8.08201217,17.376982434243114,1012.29102,-2263432.64
1644113058.5146365,7.79558372,17.151351973728175,1011.62103,-2269737.85
1644113059.7194226,7.52856111,16.925633715563354,1010.95099,-2276728.47
1644113060.9158149,7.24119806,16.700892596759047,1010.28406,-2283029.86
1644113062.1122699,6.97449207,16.47447626664093,1009.61237,-2293398.67
1644113063.3222895,6.71105051,16.249775815074507,1008.94598,-2300933.03
1644113064.5394504,6.43403673,16.02651285690366,1008.28406,-2307154.54
1644113065.7409644,6.18436813,15.805586360464956,1007.62927,-2318686.42
1644113066.9434555,5.93629121,15.581813615915523,1006.96625,-2326094.44
1644113068.1455662,5.69029569,15.358605737899529,1006.30511,-2334248.61
1644113069.3474228,5.43822431,15.137929063543735,1005.65167,-2346303.24
1644113070.5501454,5.20976734,14.919164253179712,1005.00409,-2354523.3
1644113071.7476816,4.95581769,14.702580059621635,1004.36316,-2363127.2
1644113072.9486005,4.72902679,14.481308762446611,1003.70856,-2370550.25
1644113074.148441,4.48629426,14.265291942208185,1003.0697,-2383143.02
1644113075.3481734,4.26615762,14.048715934452252,1002.42938,-2390871.06
1644113076.5464,4.04953861,13.832219777923179,1001.78949,-2399054.42
1644113077.7484283,3.85467553,13.620532195687218,1001.164,-2411216.38
1644113078.9506702,3.63941621,13.407004277209682,1000.53326,-2419610.19
1644113080.1494489,3.44163084,13.194220929065464,999.904907,-2427980.32
1644113081.35262,3.25384593,12.985074364949611,999.287476,-2436457.16
1644113082.5554018,3.0418353,12.775618079858111,998.669312,-2449924.29
1644113083.7574036,2.85204076,12.56823113637542,998.057434,-2454255.09
1644113084.958383,2.6558597,12.358900597874193,997.440002,-2462771.8
1644113086.1574814,2.46395301,12.154974162505798,996.838684,-2476190.48
1644113087.3584297,2.29533529,11.946847785506645,996.225159,-2484844.66
1644113088.5603933,2.10204553,11.74365250994967,995.626343,-2494181.36
1644113089.7586424,1.92183196,11.542077612046587,995.032471,-2512363.1
1644113090.9584472,1.74102032,11.342331604731584,994.444153,-2521878.51
1644113092.1587315,1.57455742,11.139316316320146,993.846375,-2531165.63
1644113093.3574388,1.41217005,10.94159297412864,993.264343,-2540635.57
1644113094.5584066,1.24188983,10.742653391472073,992.678894,-2554639.31
1644113095.7612622,1.079216,10.547849380588072,992.105774,-2564014.47
1644113096.9609091,0.929449141,10.35417499268007,991.536133,-2573561.28
1644113098.1811678,0.769603312,10.159804298836372,990.9646,-2587760.84
1644113099.3804922,0.622622847,9.968723489890873,990.402893,-2597218.13
1644113100.5834491,0.473374843,9.777882252961849,989.842041,-2607158.89
1644113101.7834609,0.330339938,9.590687909357566,989.292053,-2617046.79
1644113102.9849408,0.173677697,9.362606060386515,988.622131,-2631536.05
1644113104.1864223,0.0496970973,9.17731891067832,988.078064,-2641597.15
1644113105.3848786,-0.104274503,8.99383402001328,987.539429,-2651876.64
1644113106.6000605,-0.242546662,8.80959421189744,986.998718,-2666319.53
1644113107.8002508,-0.385161846,8.629093245880037,986.469116,-2676201.91
1644113108.9984663,-0.513545274,8.449004230859245,985.940857,-2686266.03
1644113110.2012653,-0.631523907,8.269930780608313,985.41571,-2699976.75
1644113111.4022412,-0.745580494,8.091437024119076,984.892395,-2709192.81
1644113112.6051123,-0.879282653,7.917063459305911,984.381287,-2718919.44
1644113113.8213968,-1.00767016,7.740522070414972,983.863953,-2728404.83
1644113115.0254335,-1.12931168,7.566270339428679,983.353455,-2742693.6
1644113116.2230098,-1.23893201,7.395789508805447,982.854126,-2752765.28
1644113117.4244845,-1.36603367,7.222786984632267,982.347534,-2762188.86
1644113118.6274912,-1.47423243,7.05499672514057,981.856323,-2776818.54
1644113119.8383975,-1.5911386,6.890211611136973,981.374023,-2787114.56
1644113121.0394468,-1.70284283,6.719776665344717,980.875305,-2796734.29
1644113122.2390416,-1.81731951,6.559024032722223,980.405029,-2812498.57
1644113123.4368725,-1.91568911,6.391556333637994,979.915222,-2822853.46
1644113124.6453245,-2.01557302,6.233276100785384,979.452393,-2832867.25
1644113125.842103,-2.11664319,6.07360296546308,978.985596,-2843264.89
1644113127.041486,-2.19700789,5.913329835368296,978.517151,-2858355.61
1644113128.2513964,-2.30703592,5.7604362831792555,978.070374,-2868676.11
1644113129.4684508,-2.40433502,5.601073878501692,977.604797,-2879129.61
1644113130.6701686,-2.50539612,5.444100076390475,977.146301,-2894027.49
1644113131.863454,-2.60551333,5.293215927795513,976.705688,-2905167.92
1644113133.0694034,-2.68934559,5.140731661815795,976.260498,-2915409.25
1644113134.2728744,-2.78771686,4.989238893566736,975.818298,-2925800.41
1644113135.480172,-2.86669373,4.84166695863951,975.387634,-2942155.9
1644113136.6912396,-2.94599461,4.692118586978651,974.951294,-2952051.11
1644113137.8834097,-3.04401135,4.54668173955052,974.527039,-2962511.3
1644113139.0794675,-3.13203477,4.4039773778025175,974.11084,-2977498.69
1644113140.305398,-3.20574355,4.257894579026402,973.684875,-2986618.58
1644113141.510448,-3.28669428,4.118461035560614,973.278381,-2996333.95
1644113142.7084968,-3.37765765,3.977659682868117,972.867981,-3010903.46
1644113143.9076118,-3.4408679,3.837479494709802,972.459473,-3021155.54
1644113145.1104043,-3.51668953,3.701105200125361,972.062134,-3031125.41
1644113146.3085363,-3.58166527,3.5653540527308674,971.666687,-3041411.03
1644113147.5174336,-3.66297698,3.426873257333387,971.263367,-3056564.48
1644113148.7154064,-3.72917127,3.2957229834552555,970.88147,-3066805.08
1644113149.9316416,-3.79572296,3.162724207534528,970.494263,-3076415.41
1644113151.124929,-3.87214541,3.0343976991261705,970.120728,-3091594.59
1644113152.325408,-3.93929672,2.905879742480388,969.746704,-3100781.38
1644113153.518137,-3.99878644,2.774863293539782,969.365479,-3111177.44
1644113154.7191007,-4.0601778,2.6489205009647896,968.999084,-3122067.21
1644113155.917095,-4.12438821,2.5234801737007815,968.634216,-3137630.67
1644113157.1156526,-4.19363307,2.3992138502368454,968.272827,-3148237.37
1644113158.3164036,-4.25870323,2.277255805380933,967.918213,-3157904.42
1644113159.5173957,-4.32636547,2.1508880809413995,967.550842,-3171252.91
1644113160.73045,-4.38658189,2.0320578671285907,967.205444,-3180317.86
1644113161.9322858,-4.44053888,1.9104982452873258,966.852173,-3189757.33
1644113163.136406,-4.49700975,1.795240611025045,966.517273,-3204682.66
1644113164.3360476,-4.55735635,1.654897769978297,966.109558,-3214707.85
1644113165.5391352,-4.60678577,1.539072762499126,965.773132,-3225302.74
1644113166.737924,-4.67350101,1.4253096458706618,965.442749,-3235982.26
1644113167.9294043,-4.72997999,1.3134620109655721,965.117981,-3250408.7
1644113169.1353571,-4.7779994,1.2249549947018743,964.861023,-3260105.58
1644113170.3338053,-4.82875919,1.0898183376350314,964.46875,-3269688.1
1644113171.532274,-4.87434148,0.9803148327692098,964.15094,-3283516.52
1644113172.7312646,-4.91150379,0.8697634230601081,963.830139,-3293255.61
1644113173.9200573,-4.97161531,0.7672103552046613,963.532593,-3303056.36
1644113175.1294918,-5.02143383,0.6794969151656022,963.278137,-3312231.19
1644113176.3245423,-5.07206439,0.5562505369459533,962.920654,-3326951.97
1644113177.5162935,-5.12226104,0.45093631353216407,962.615234,-3336757.71
1644113178.7111304,-5.16343545,0.3496901618060312,962.321655,-3345785.84
1644113179.9171937,-5.21951341,0.26803016468335944,962.0849,-3359551.13
1644113181.1294725,-5.25862646,0.1497017423965727,961.741882,-3368232.73
1644113182.325344,-5.30822086,0.05296107620521512,961.461487,-3376737.27
1644113183.5264008,-5.35099458,-0.05084898125664057,961.160645,-3385976.33
1644113184.7244742,-5.38935041,-0.1414877169218096,960.89801,-3398055.67
1644113185.9277818,-5.42598056,-0.24513708940871393,960.597717,-3407783.85
1644113187.1232657,-5.45738744,-0.3364327460048627,960.333252,-3417061.54
1644113188.321257,-5.4991765,-0.4341890631449345,960.05011,-3429991.04
1644113189.5184398,-5.54683351,-0.5236967674714874,959.790894,-3440570.07
1644113190.735455,-5.56578683,-0.6140593060829351,959.529236,-3449738.85
1644113191.9388895,-5.60705947,-0.7038432010085631,959.269287,-3464867.19
1644113193.1380258,-5.64375972,-0.7947558236199517,959.006104,-3474292.61
1644113194.3422337,-5.67953014,-0.8834241317756942,958.749451,-3488183.8
1644113195.5434306,-5.72188854,-0.9692142360160351,958.50116,-3497876.68
1644113196.7445261,-5.74133586,-1.0559220251370123,958.250244,-3510626.8
1644113197.944608,-5.77608203,-1.1401720831222664,958.00647,-3516133.91
1644113199.1385846,-5.8041749,-1.2257828231127303,957.758789,-3520176.59
1644113200.3427196,-5.84296989,-1.310771044471955,957.512939,-3530436.37
1644113201.5444489,-5.87602186,-1.3905144948975947,957.282288,-3538240.69
1644113202.7454417,-5.90265703,-1.4733065525956999,957.042847,-3546099.13
1644113203.947357,-5.93739414,-1.554525536868679,956.807983,-3553940.72
1644113205.1494486,-5.96691179,-1.6349726318555815,956.575378,-3565780.47
1644113206.3646493,-6.00499248,-1.7120508132959644,956.352539,-3574092.76
1644113207.5645325,-6.03226852,-1.7915235109455514,956.122803,-3582351.95
1644113208.7764,-6.06158447,-1.8726525060291224,955.888306,-3595247.78
1644113209.970618,-6.0840435,-1.9449841539093018,955.67926,-3603487.82
1644113211.1813316,-6.11230468,-2.024398911146538,955.449768,-3611501.59
1644113212.383456,-6.13976144,-2.100168185516046,955.230835,-3624021.29
1644113213.5956676,-6.16313266,-2.169692331332647,955.029968,-3631894.91
1644113214.7934477,-6.18782043,-2.2426882425725174,954.819092,-3639548.14
1644113216.0083725,-6.22410678,-2.3149948643945453,954.610229,-3647186.09
1644113217.2134092,-6.25838708,-2.39028842240532,954.392761,-3658128.5
1644113218.4104092,-6.28653383,-2.4587001174719054,954.19519,-3665450.24
1644113219.607569,-6.30234861,-2.527435395054269,953.996704,-3673674.23
1644113220.8103995,-6.33113622,-2.597149990044233,953.79541,-3685665.43
1644113222.0132551,-6.34751033,-2.6630658369381734,953.605103,-3693185.46
1644113223.2122712,-6.36679649,-2.7338089830659893,953.400879,-3701491.61
1644113224.4246702,-6.38534069,-2.797813904667722,953.216125,-3712520.31
1644113225.6385224,-6.40539264,-2.8648061719794247,953.022766,-3719458.89
1644113226.841269,-6.42877769,-2.932946988615141,952.826111,-3726455.63
1644113228.0422602,-6.45457601,-2.99360694090026,952.651062,-3733882.74
1644113229.2398038,-6.46885967,-3.060533447036072,952.457947,-3744992.26
1644113230.4403965,-6.48818302,-3.1248643574142942,952.272339,-3752684.8
1644113231.637986,-6.5045948,-3.1806748631229627,952.111328,-3760403.22
1644113232.8492284,-6.52179861,-3.24715374160867,951.919556,-3771232.44
1644113234.0629804,-6.54413461,-3.3062326769644095,951.749146,-3778652.44
1644113235.2740183,-6.55825328,-3.365422718021593,951.57843,-3785558.15
1644113236.471751,-6.56562376,-3.424300151713118,951.40863,-3795588.63
1644113237.679875,-6.5814085,-3.48595514740205,951.230835,-3802570.14
1644113238.872386,-6.59633302,-3.5545590029683454,951.03302,-3808565.12
1644113240.0660543,-6.61700439,-3.6085409710789667,950.87738,-3814979.1
1644113241.2641866,-6.62070655,-3.6537407319376847,950.74707,-3825558.57
1644113242.4724095,-6.63458633,-3.7114141390847233,950.580811,-3832103.43
1644113243.6751528,-6.65280342,-3.7756569978714607,950.39563,-3838398.26
1644113244.8802505,-6.66353797,-3.8302067247209295,950.238403,-3848179.08
1644113246.084887,-6.66144466,-3.8826850339094787,950.087158,-3854462.14
1644113247.2926068,-6.67344331,-3.9383230550855597,949.926819,-3861322.1
1644113248.5022388,-6.6934781,-3.9902375834752566,949.777222,-3867662.9
1644113249.7111335,-6.70654439,-4.039381177903223,949.63562,-3877198.46
1644113250.910389,-6.70703268,-4.093739485236777,949.479004,-3882984.78
1644113252.1032634,-6.7209773,-4.14212741764262,949.3396,-3887801.08
1644113253.2981606,-6.73305654,-4.1960914041131225,949.184143,-3893680.39
1644113254.4934645,-6.75846672,-4.235311530820634,949.071167,-3927396.29
1644113255.6912284,-6.77260446,-4.286570139654295,948.923523,-3911059.11
1644113256.888734,-6.76554536,-4.335437781702093,948.782776,-3923227.63
1644113258.0912642,-6.7815361,-4.383503608026047,948.644348,-3936324.63
1644113259.2904525,-6.80180597,-4.428732501690123,948.514099,-3903076.47
1644113260.4923174,-6.80924367,-4.474303282575216,948.382874,-3934706.82
1644113261.707252,-6.81514835,-4.522378697956357,948.244446,-3931370.69
1644113262.90445,-6.82955503,-4.567764925858778,948.11377,-3933232.99
1644113264.101224,-6.85010433,-4.568973288312711,948.110291,-3939595.77
1644113265.2959728,-6.84565019,-4.4015609215658404,948.592346,-3965912.16
1644113266.526882,-6.86276674,-4.541330134219879,948.18988,-3985876.14
1644113267.7216516,-6.87712621,-4.598271596765226,948.02594,-3993545.66
1644113268.9193785,-6.89722681,-4.691877034783967,947.75647,-4004526.54
1644113270.1189983,-6.8997488,-4.763059567677303,947.551575,-4000364.2
1644113271.3245125,-6.91597986,-4.800254768707653,947.444519,-3997999.61
1644113272.5283973,-6.91620445,-4.821673416386971,947.382874,-4008926.56
1644113273.7355566,-6.93091917,-4.860335319035496,947.271606,-4015677.36
1644113274.9474962,-6.94524621,-4.93153508911189,947.066711,-4016982.06
1644113276.1441557,-6.95061731,-4.986726657084962,946.907898,-4021144.33
1644113277.3404877,-6.96410703,-5.031527999731143,946.778992,-4017723.77
1644113278.5364408,-6.96512413,-5.0627338297459,946.689209,-4023941.66
1644113279.7345693,-6.97223424,-5.094174294759045,946.598755,-4028369.47
1644113280.9312637,-6.97924613,-5.12362195288074,946.514038,-4033685.64
1644113282.1504498,-6.99363088,-5.141740892682206,946.461914,-4052318.99
1644113283.3467891,-6.99490833,-5.164273428265764,946.397095,-4055569.98
1644113284.538127,-7.00897073,-5.1985618680500965,946.298462,-4060191.46
1644113285.7278326,-7.00762557,-5.233658227952676,946.19751,-4067499.24
1644113286.9188719,-7.0119276,-5.267801630003403,946.099304,-4071929.08
1644113288.122607,-7.00486516,-5.309395458292656,945.979675,-4076687.67
1644113289.3210394,-7.00846338,-5.345282561075633,945.876465,-4078684.71
1644113290.5306199,-7.00894165,-5.378370156956096,945.781311,-4085003.28
1644113291.7307782,-7.02298116,-5.416043752452048,945.672974,-4089403.53
1644113292.9279692,-7.02954387,-5.448455521023607,945.579773,-4095042.54
1644113294.1244905,-7.0386157,-5.486578780631981,945.470154,-4102149.86
1644113295.3350315,-7.05462598,-5.524959074743967,945.359802,-4106255.09
1644113296.5334961,-7.05450725,-5.556229493328542,945.269897,-4111410.62
1644113297.7290034,-7.05570888,-5.587373661697994,945.180359,-4115568.06
1644113298.9244442,-7.05985546,-5.613551175043995,945.105103,-4121318.95
1644113300.1199803,-7.05970144,-5.645335207366914,945.013733,-4125836.49
1644113301.3188093,-7.0691905,-5.672406873511195,944.935913,-4130497.95
1644113302.5154145,-7.07011079,-5.6993734861107574,944.858398,-4137164.59
1644113303.7123773,-7.0821681,-5.7242811778554294,944.786804,-4140999.16
